t, X(t)
0.000000, 1.000000
0.006289, 0.999980
0.012579, 0.999921
0.018868, 0.999822
0.025158, 0.999684
0.031447, 0.999506
0.037737, 0.999288
0.044026, 0.999031
0.050316, 0.998734
0.056605, 0.998398
0.062895, 0.998023
0.069184, 0.997608
0.075474, 0.997153
0.081763, 0.996659
0.088053, 0.996126
0.094342, 0.995553
0.100632, 0.994941
0.106921, 0.994289
0.113211, 0.993599
0.119500, 0.992868
0.125789, 0.992099
0.132079, 0.991290
0.138368, 0.990442
0.144658, 0.989555
0.150947, 0.988629
0.157237, 0.987664
0.163526, 0.986659
0.169816, 0.985616
0.176105, 0.984533
0.182395, 0.983412
0.188684, 0.982252
0.194974, 0.981053
0.201263, 0.979815
0.207553, 0.978538
0.213842, 0.977223
0.220132, 0.975869
0.226421, 0.974476
0.232711, 0.973045
0.239000, 0.971575
0.245290, 0.970067
0.251579, 0.968521
0.257868, 0.966936
0.264158, 0.965313
0.270447, 0.963651
0.276737, 0.961952
0.283026, 0.960215
0.289316, 0.958439
0.295605, 0.956626
0.301895, 0.954775
0.308184, 0.952886
0.314474, 0.950959
0.320763, 0.948995
0.327053, 0.946993
0.333342, 0.944954
0.339632, 0.942877
0.345921, 0.940764
0.352211, 0.938612
0.358500, 0.936424
0.364790, 0.934199
0.371079, 0.931937
0.377368, 0.929638
0.383658, 0.927302
0.389947, 0.924929
0.396237, 0.922520
0.402526, 0.920074
0.408816, 0.917592
0.415105, 0.915074
0.421395, 0.912519
0.427684, 0.909929
0.433974, 0.907302
0.440263, 0.904640
0.446553, 0.901941
0.452842, 0.899207
0.459132, 0.896438
0.465421, 0.893633
0.471711, 0.890792
0.478000, 0.887917
0.484290, 0.885006
0.490579, 0.882060
0.496869, 0.879080
0.503158, 0.876064
0.509447, 0.873014
0.515737, 0.869930
0.522026, 0.866811
0.528316, 0.863657
0.534605, 0.860470
0.540895, 0.857248
0.547184, 0.853993
0.553474, 0.850704
0.559763, 0.847381
0.566053, 0.844024
0.572342, 0.840635
0.578632, 0.837212
0.584921, 0.833756
0.591211, 0.830267
0.597500, 0.826745
0.603790, 0.823190
0.610079, 0.819603
0.616369, 0.815983
0.622658, 0.812331
0.628947, 0.808647
0.635237, 0.804931
0.641526, 0.801183
0.647816, 0.797404
0.654105, 0.793593
0.660395, 0.789750
0.666684, 0.785876
0.672974, 0.781972
0.679263, 0.778036
0.685553, 0.774069
0.691842, 0.770072
0.698132, 0.766044
0.704421, 0.761987
0.710711, 0.757898
0.717000, 0.753780
0.723290, 0.749633
0.729579, 0.745455
0.735869, 0.741248
0.742158, 0.737012
0.748447, 0.732746
0.754737, 0.728452
0.761026, 0.724128
0.767316, 0.719777
0.773605, 0.715396
0.779895, 0.710987
0.786184, 0.706551
0.792474, 0.702086
0.798763, 0.697593
0.805053, 0.693073
0.811342, 0.688526
0.817632, 0.683951
0.823921, 0.679349
0.830211, 0.674720
0.836500, 0.670065
0.842790, 0.665383
0.849079, 0.660675
0.855369, 0.655940
0.861658, 0.651180
0.867948, 0.646394
0.874237, 0.641582
0.880526, 0.636745
0.886816, 0.631883
0.893105, 0.626996
0.899395, 0.622084
0.905684, 0.617147
0.911974, 0.612186
0.918263, 0.607201
0.924553, 0.602192
0.930842, 0.597159
0.937132, 0.592102
0.943421, 0.587022
0.949711, 0.581918
0.956000, 0.576792
0.962290, 0.571643
0.968579, 0.566471
0.974869, 0.561277
0.981158, 0.556060
0.987448, 0.550822
0.993737, 0.545562
1.000026, 0.540280
1.006316, 0.534977
1.012605, 0.529653
1.018895, 0.524307
1.025184, 0.518941
1.031474, 0.513555
1.037763, 0.508148
1.044053, 0.502721
1.050342, 0.497274
1.056632, 0.491808
1.062921, 0.486322
1.069211, 0.480816
1.075500, 0.475292
1.081790, 0.469749
1.088079, 0.464188
1.094369, 0.458608
1.100658, 0.453010
1.106948, 0.447394
1.113237, 0.441760
1.119527, 0.436109
1.125816, 0.430440
1.132105, 0.424755
1.138395, 0.419052
1.144684, 0.413334
1.150974, 0.407598
1.157263, 0.401847
1.163553, 0.396080
1.169842, 0.390297
1.176132, 0.384499
1.182421, 0.378685
1.188711, 0.372856
1.195000, 0.367013
1.201290, 0.361155
1.207579, 0.355283
1.213869, 0.349397
1.220158, 0.343497
1.226448, 0.337584
1.232737, 0.331657
1.239027, 0.325717
1.245316, 0.319764
1.251605, 0.313798
1.257895, 0.307820
1.264184, 0.301830
1.270474, 0.295828
1.276763, 0.289814
1.283053, 0.283789
1.289342, 0.277753
1.295632, 0.271705
1.301921, 0.265647
1.308211, 0.259578
1.314500, 0.253499
1.320790, 0.247410
1.327079, 0.241312
1.333369, 0.235203
1.339658, 0.229086
1.345948, 0.222959
1.352237, 0.216823
1.358527, 0.210679
1.364816, 0.204527
1.371106, 0.198366
1.377395, 0.192198
1.383684, 0.186022
1.389974, 0.179839
1.396263, 0.173648
1.402553, 0.167451
1.408842, 0.161247
1.415132, 0.155037
1.421421, 0.148820
1.427711, 0.142598
1.434000, 0.136370
1.440290, 0.130136
1.446579, 0.123898
1.452869, 0.117655
1.459158, 0.111406
1.465448, 0.105154
1.471737, 0.098897
1.478027, 0.092637
1.484316, 0.086373
1.490606, 0.080105
1.496895, 0.073834
1.503184, 0.067560
1.509474, 0.061284
1.515763, 0.055005
1.522053, 0.048724
1.528342, 0.042441
1.534632, 0.036157
1.540921, 0.029871
1.547211, 0.023583
1.553500, 0.017295
1.559790, 0.011006
1.566079, 0.004717
1.572369, -0.001572
1.578658, -0.007862
1.584948, -0.014151
1.591237, -0.020439
1.597527, -0.026727
1.603816, -0.033014
1.610106, -0.039299
1.616395, -0.045583
1.622684, -0.051865
1.628974, -0.058145
1.635263, -0.064422
1.641553, -0.070698
1.647842, -0.076970
1.654132, -0.083239
1.660421, -0.089505
1.666711, -0.095767
1.673000, -0.102026
1.679290, -0.108281
1.685579, -0.114531
1.691869, -0.120777
1.698158, -0.127018
1.704448, -0.133254
1.710737, -0.139485
1.717027, -0.145710
1.723316, -0.151929
1.729606, -0.158143
1.735895, -0.164350
1.742185, -0.170550
1.748474, -0.176744
1.754763, -0.182931
1.761053, -0.189111
1.767342, -0.195283
1.773632, -0.201448
1.779921, -0.207604
1.786211, -0.213752
1.792500, -0.219892
1.798790, -0.226023
1.805079, -0.232146
1.811369, -0.238259
1.817658, -0.244362
1.823948, -0.250456
1.830237, -0.256540
1.836527, -0.262614
1.842816, -0.268678
1.849106, -0.274730
1.855395, -0.280772
1.861685, -0.286803
1.867974, -0.292823
1.874263, -0.298831
1.880553, -0.304827
1.886842, -0.310811
1.893132, -0.316783
1.899421, -0.322742
1.905711, -0.328688
1.912000, -0.334622
1.918290, -0.340542
1.924579, -0.346449
1.930869, -0.352342
1.937158, -0.358221
1.943448, -0.364086
1.949737, -0.369937
1.956027, -0.375773
1.962316, -0.381594
1.968606, -0.387400
1.974895, -0.393190
1.981185, -0.398965
1.987474, -0.404725
1.993764, -0.410468
2.000053, -0.416195
2.006342, -0.421906
2.012632, -0.427600
2.018921, -0.433277
2.025211, -0.438936
2.031500, -0.444579
2.037790, -0.450204
2.044079, -0.455811
2.050369, -0.461400
2.056658, -0.466971
2.062948, -0.472523
2.069237, -0.478057
2.075527, -0.483571
2.081816, -0.489067
2.088106, -0.494543
2.094395, -0.500000
2.100685, -0.505437
2.106974, -0.510854
2.113264, -0.516251
2.119553, -0.521627
2.125842, -0.526983
2.132132, -0.532317
2.138421, -0.537631
2.144711, -0.542924
2.151000, -0.548195
2.157290, -0.553444
2.163579, -0.558671
2.169869, -0.563877
2.176158, -0.569060
2.182448, -0.574220
2.188737, -0.579358
2.195027, -0.584473
2.201316, -0.589565
2.207606, -0.594633
2.213895, -0.599678
2.220185, -0.604699
2.226474, -0.609697
2.232764, -0.614670
2.239053, -0.619619
2.245342, -0.624543
2.251632, -0.629443
2.257921, -0.634317
2.264211, -0.639167
2.270500, -0.643991
2.276790, -0.648790
2.283079, -0.653563
2.289369, -0.658311
2.295658, -0.663032
2.301948, -0.667727
2.308237, -0.672396
2.314527, -0.677038
2.320816, -0.681653
2.327106, -0.686242
2.333395, -0.690803
2.339685, -0.695337
2.345974, -0.699843
2.352264, -0.704322
2.358553, -0.708773
2.364843, -0.713195
2.371132, -0.717590
2.377421, -0.721956
2.383711, -0.726294
2.390000, -0.730603
2.396290, -0.734883
2.402579, -0.739134
2.408869, -0.743355
2.415158, -0.747547
2.421448, -0.751710
2.427737, -0.755843
2.434027, -0.759946
2.440316, -0.764019
2.446606, -0.768062
2.452895, -0.772074
2.459185, -0.776056
2.465474, -0.780007
2.471764, -0.783928
2.478053, -0.787817
2.484343, -0.791675
2.490632, -0.795502
2.496921, -0.799297
2.503211, -0.803061
2.509500, -0.806793
2.515790, -0.810493
2.522079, -0.814161
2.528369, -0.817797
2.534658, -0.821400
2.540948, -0.824971
2.547237, -0.828510
2.553527, -0.832015
2.559816, -0.835488
2.566106, -0.838927
2.572395, -0.842334
2.578685, -0.845707
2.584974, -0.849046
2.591264, -0.852352
2.597553, -0.855625
2.603843, -0.858863
2.610132, -0.862068
2.616422, -0.865238
2.622711, -0.868374
2.629000, -0.871476
2.635290, -0.874543
2.641579, -0.877576
2.647869, -0.880574
2.654158, -0.883537
2.660448, -0.886466
2.666737, -0.889359
2.673027, -0.892217
2.679316, -0.895040
2.685606, -0.897827
2.691895, -0.900579
2.698185, -0.903295
2.704474, -0.905975
2.710764, -0.908620
2.717053, -0.911228
2.723343, -0.913801
2.729632, -0.916338
2.735922, -0.918838
2.742211, -0.921302
2.748500, -0.923729
2.754790, -0.926120
2.761079, -0.928474
2.767369, -0.930792
2.773658, -0.933072
2.779948, -0.935316
2.786237, -0.937523
2.792527, -0.939693
2.798816, -0.941825
2.805106, -0.943920
2.811395, -0.945978
2.817685, -0.947999
2.823974, -0.949982
2.830264, -0.951927
2.836553, -0.953835
2.842843, -0.955705
2.849132, -0.957537
2.855422, -0.959332
2.861711, -0.961088
2.868001, -0.962807
2.874290, -0.964487
2.880579, -0.966129
2.886869, -0.967733
2.893158, -0.969299
2.899448, -0.970826
2.905737, -0.972315
2.912027, -0.973765
2.918316, -0.975177
2.924606, -0.976551
2.930895, -0.977885
2.937185, -0.979181
2.943474, -0.980439
2.949764, -0.981657
2.956053, -0.982837
2.962343, -0.983978
2.968632, -0.985080
2.974922, -0.986142
2.981211, -0.987166
2.987501, -0.988151
2.993790, -0.989097
3.000079, -0.990004
3.006369, -0.990871
3.012658, -0.991699
3.018948, -0.992489
3.025237, -0.993238
3.031527, -0.993949
3.037816, -0.994620
3.044106, -0.995252
3.050395, -0.995844
3.056685, -0.996397
3.062974, -0.996911
3.069264, -0.997385
3.075553, -0.997820
3.081843, -0.998215
3.088132, -0.998571
3.094422, -0.998888
3.100711, -0.999164
3.107001, -0.999402
3.113290, -0.999600
3.119579, -0.999758
3.125869, -0.999876
3.132158, -0.999955
3.138448, -0.999995
3.144737, -0.999995
3.151027, -0.999955
3.157316, -0.999876
3.163606, -0.999758
3.169895, -0.999600
3.176185, -0.999402
3.182474, -0.999164
3.188764, -0.998888
3.195053, -0.998571
3.201343, -0.998215
3.207632, -0.997820
3.213922, -0.997385
3.220211, -0.996911
3.226501, -0.996397
3.232790, -0.995844
3.239080, -0.995252
3.245369, -0.994620
3.251658, -0.993949
3.257948, -0.993238
3.264237, -0.992489
3.270527, -0.991699
3.276816, -0.990871
3.283106, -0.990004
3.289395, -0.989097
3.295685, -0.988151
3.301974, -0.987166
3.308264, -0.986142
3.314553, -0.985080
3.320843, -0.983978
3.327132, -0.982837
3.333422, -0.981657
3.339711, -0.980439
3.346001, -0.979181
3.352290, -0.977885
3.358580, -0.976551
3.364869, -0.975177
3.371158, -0.973765
3.377448, -0.972315
3.383737, -0.970826
3.390027, -0.969299
3.396316, -0.967733
3.402606, -0.966129
3.408895, -0.964487
3.415185, -0.962807
3.421474, -0.961088
3.427764, -0.959332
3.434053, -0.957537
3.440343, -0.955705
3.446632, -0.953835
3.452922, -0.951927
3.459211, -0.949982
3.465501, -0.947999
3.471790, -0.945978
3.478080, -0.943920
3.484369, -0.941825
3.490659, -0.939693
3.496948, -0.937523
3.503237, -0.935316
3.509527, -0.933072
3.515816, -0.930792
3.522106, -0.928474
3.528395, -0.926120
3.534685, -0.923729
3.540974, -0.921302
3.547264, -0.918838
3.553553, -0.916338
3.559843, -0.913801
3.566132, -0.911228
3.572422, -0.908620
3.578711, -0.905975
3.585001, -0.903295
3.591290, -0.900579
3.597580, -0.897827
3.603869, -0.895040
3.610159, -0.892217
3.616448, -0.889359
3.622737, -0.886466
3.629027, -0.883537
3.635316, -0.880574
3.641606, -0.877576
3.647895, -0.874543
3.654185, -0.871476
3.660474, -0.868374
3.666764, -0.865238
3.673053, -0.862068
3.679343, -0.858863
3.685632, -0.855625
3.691922, -0.852352
3.698211, -0.849046
3.704501, -0.845707
3.710790, -0.842334
3.717080, -0.838927
3.723369, -0.835488
3.729659, -0.832015
3.735948, -0.828510
3.742237, -0.824971
3.748527, -0.821400
3.754816, -0.817797
3.761106, -0.814161
3.767395, -0.810493
3.773685, -0.806793
3.779974, -0.803061
3.786264, -0.799297
3.792553, -0.795502
3.798843, -0.791675
3.805132, -0.787817
3.811422, -0.783928
3.817711, -0.780007
3.824001, -0.776056
3.830290, -0.772074
3.836580, -0.768062
3.842869, -0.764019
3.849159, -0.759946
3.855448, -0.755843
3.861738, -0.751710
3.868027, -0.747547
3.874316, -0.743355
3.880606, -0.739134
3.886895, -0.734883
3.893185, -0.730603
3.899474, -0.726294
3.905764, -0.721956
3.912053, -0.717590
3.918343, -0.713195
3.924632, -0.708773
3.930922, -0.704322
3.937211, -0.699843
3.943501, -0.695337
3.949790, -0.690803
3.956080, -0.686242
3.962369, -0.681653
3.968659, -0.677038
3.974948, -0.672396
3.981238, -0.667727
3.987527, -0.663032
3.993816, -0.658311
4.000106, -0.653563
4.006395, -0.648790
4.012685, -0.643991
4.018974, -0.639167
4.025264, -0.634317
4.031553, -0.629443
4.037843, -0.624543
4.044132, -0.619619
4.050422, -0.614670
4.056711, -0.609697
4.063001, -0.604699
4.069290, -0.599678
4.075580, -0.594633
4.081869, -0.589565
4.088159, -0.584473
4.094448, -0.579358
4.100738, -0.574220
4.107027, -0.569060
4.113317, -0.563877
4.119606, -0.558671
4.125895, -0.553444
4.132185, -0.548195
4.138474, -0.542924
4.144764, -0.537631
4.151053, -0.532317
4.157343, -0.526983
4.163632, -0.521627
4.169922, -0.516251
4.176211, -0.510854
4.182501, -0.505437
4.188790, -0.500000
4.195080, -0.494543
4.201369, -0.489067
4.207659, -0.483571
4.213948, -0.478057
4.220238, -0.472523
4.226527, -0.466971
4.232817, -0.461400
4.239106, -0.455811
4.245395, -0.450204
4.251685, -0.444579
4.257974, -0.438936
4.264264, -0.433277
4.270553, -0.427600
4.276843, -0.421906
4.283132, -0.416195
4.289422, -0.410468
4.295711, -0.404725
4.302001, -0.398965
4.308290, -0.393190
4.314580, -0.387400
4.320869, -0.381594
4.327159, -0.375773
4.333448, -0.369937
4.339738, -0.364086
4.346027, -0.358221
4.352317, -0.352342
4.358606, -0.346449
4.364895, -0.340542
4.371185, -0.334622
4.377474, -0.328688
4.383764, -0.322742
4.390053, -0.316783
4.396343, -0.310811
4.402632, -0.304827
4.408922, -0.298831
4.415211, -0.292823
4.421501, -0.286803
4.427790, -0.280772
4.434080, -0.274730
4.440369, -0.268678
4.446659, -0.262614
4.452948, -0.256540
4.459238, -0.250456
4.465527, -0.244362
4.471817, -0.238259
4.478106, -0.232146
4.484396, -0.226023
4.490685, -0.219892
4.496974, -0.213752
4.503264, -0.207604
4.509553, -0.201448
4.515843, -0.195283
4.522132, -0.189111
4.528422, -0.182931
4.534711, -0.176744
4.541001, -0.170550
4.547290, -0.164350
4.553580, -0.158143
4.559869, -0.151929
4.566159, -0.145710
4.572448, -0.139485
4.578738, -0.133254
4.585027, -0.127018
4.591317, -0.120777
4.597606, -0.114531
4.603896, -0.108281
4.610185, -0.102026
4.616474, -0.095767
4.622764, -0.089505
4.629053, -0.083239
4.635343, -0.076970
4.641632, -0.070698
4.647922, -0.064422
4.654211, -0.058145
4.660501, -0.051865
4.666790, -0.045583
4.673080, -0.039299
4.679369, -0.033014
4.685659, -0.026727
4.691948, -0.020439
4.698238, -0.014151
4.704527, -0.007862
4.710817, -0.001572
4.717106, 0.004717
4.723396, 0.011006
4.729685, 0.017295
4.735975, 0.023583
4.742264, 0.029871
4.748553, 0.036157
4.754843, 0.042441
4.761132, 0.048724
4.767422, 0.055005
4.773711, 0.061284
4.780001, 0.067560
4.786290, 0.073834
4.792580, 0.080105
4.798869, 0.086373
4.805159, 0.092637
4.811448, 0.098897
4.817738, 0.105154
4.824027, 0.111406
4.830317, 0.117655
4.836606, 0.123898
4.842896, 0.130136
4.849185, 0.136370
4.855475, 0.142598
4.861764, 0.148820
4.868053, 0.155037
4.874343, 0.161247
4.880632, 0.167451
4.886922, 0.173648
4.893211, 0.179839
4.899501, 0.186022
4.905790, 0.192198
4.912080, 0.198366
4.918369, 0.204527
4.924659, 0.210679
4.930948, 0.216823
4.937238, 0.222959
4.943527, 0.229086
4.949817, 0.235203
4.956106, 0.241312
4.962396, 0.247410
4.968685, 0.253499
4.974975, 0.259578
4.981264, 0.265647
4.987554, 0.271705
4.993843, 0.277753
5.000132, 0.283789
5.006422, 0.289814
5.012711, 0.295828
5.019001, 0.301830
5.025290, 0.307820
5.031580, 0.313798
5.037869, 0.319764
5.044159, 0.325717
5.050448, 0.331657
5.056738, 0.337584
5.063027, 0.343497
5.069317, 0.349397
5.075606, 0.355283
5.081896, 0.361155
5.088185, 0.367013
5.094475, 0.372856
5.100764, 0.378685
5.107054, 0.384499
5.113343, 0.390297
5.119632, 0.396080
5.125922, 0.401847
5.132211, 0.407598
5.138501, 0.413334
5.144790, 0.419052
5.151080, 0.424755
5.157369, 0.430440
5.163659, 0.436109
5.169948, 0.441760
5.176238, 0.447394
5.182527, 0.453010
5.188817, 0.458608
5.195106, 0.464188
5.201396, 0.469749
5.207685, 0.475292
5.213975, 0.480816
5.220264, 0.486322
5.226554, 0.491808
5.232843, 0.497274
5.239132, 0.502721
5.245422, 0.508148
5.251711, 0.513555
5.258001, 0.518941
5.264290, 0.524307
5.270580, 0.529653
5.276869, 0.534977
5.283159, 0.540280
5.289448, 0.545562
5.295738, 0.550822
5.302027, 0.556060
5.308317, 0.561277
5.314606, 0.566471
5.320896, 0.571643
5.327185, 0.576792
5.333475, 0.581918
5.339764, 0.587022
5.346054, 0.592102
5.352343, 0.597159
5.358633, 0.602192
5.364922, 0.607201
5.371211, 0.612186
5.377501, 0.617147
5.383790, 0.622084
5.390080, 0.626996
5.396369, 0.631883
5.402659, 0.636745
5.408948, 0.641582
5.415238, 0.646394
5.421527, 0.651180
5.427817, 0.655940
5.434106, 0.660675
5.440396, 0.665383
5.446685, 0.670065
5.452975, 0.674720
5.459264, 0.679349
5.465554, 0.683951
5.471843, 0.688526
5.478133, 0.693073
5.484422, 0.697593
5.490711, 0.702086
5.497001, 0.706551
5.503290, 0.710987
5.509580, 0.715396
5.515869, 0.719777
5.522159, 0.724128
5.528448, 0.728452
5.534738, 0.732746
5.541027, 0.737012
5.547317, 0.741248
5.553606, 0.745455
5.559896, 0.749633
5.566185, 0.753780
5.572475, 0.757898
5.578764, 0.761987
5.585054, 0.766044
5.591343, 0.770072
5.597633, 0.774069
5.603922, 0.778036
5.610212, 0.781972
5.616501, 0.785876
5.622790, 0.789750
5.629080, 0.793593
5.635369, 0.797404
5.641659, 0.801183
5.647948, 0.804931
5.654238, 0.808647
5.660527, 0.812331
5.666817, 0.815983
5.673106, 0.819603
5.679396, 0.823190
5.685685, 0.826745
5.691975, 0.830267
5.698264, 0.833756
5.704554, 0.837212
5.710843, 0.840635
5.717133, 0.844024
5.723422, 0.847381
5.729712, 0.850704
5.736001, 0.853993
5.742290, 0.857248
5.748580, 0.860470
5.754869, 0.863657
5.761159, 0.866811
5.767448, 0.869930
5.773738, 0.873014
5.780027, 0.876064
5.786317, 0.879080
5.792606, 0.882060
5.798896, 0.885006
5.805185, 0.887917
5.811475, 0.890792
5.817764, 0.893633
5.824054, 0.896438
5.830343, 0.899207
5.836633, 0.901941
5.842922, 0.904640
5.849212, 0.907302
5.855501, 0.909929
5.861790, 0.912519
5.868080, 0.915074
5.874369, 0.917592
5.880659, 0.920074
5.886948, 0.922520
5.893238, 0.924929
5.899527, 0.927302
5.905817, 0.929638
5.912106, 0.931937
5.918396, 0.934199
5.924685, 0.936424
5.930975, 0.938612
5.937264, 0.940764
5.943554, 0.942877
5.949843, 0.944954
5.956133, 0.946993
5.962422, 0.948995
5.968712, 0.950959
5.975001, 0.952886
5.981291, 0.954775
5.987580, 0.956626
5.993869, 0.958439
6.000159, 0.960215
6.006448, 0.961952
6.012738, 0.963651
6.019027, 0.965313
6.025317, 0.966936
6.031606, 0.968521
6.037896, 0.970067
6.044185, 0.971575
6.050475, 0.973045
6.056764, 0.974476
6.063054, 0.975869
6.069343, 0.977223
6.075633, 0.978538
6.081922, 0.979815
6.088212, 0.981053
6.094501, 0.982252
6.100791, 0.983412
6.107080, 0.984533
6.113369, 0.985616
6.119659, 0.986659
6.125948, 0.987664
6.132238, 0.988629
6.138527, 0.989555
6.144817, 0.990442
6.151106, 0.991290
6.157396, 0.992099
6.163685, 0.992868
6.169975, 0.993599
6.176264, 0.994289
6.182554, 0.994941
6.188843, 0.995553
6.195133, 0.996126
6.201422, 0.996659
6.207712, 0.997153
6.214001, 0.997608
6.220291, 0.998023
6.226580, 0.998398
6.232870, 0.998734
6.239159, 0.999031
6.245448, 0.999288
6.251738, 0.999506
6.258027, 0.999684
6.264317, 0.999822
6.270606, 0.999921
6.276896, 0.999980
6.283185, 1.000000
